Lat [deg],Lon [deg],Alt Ellips [m]
42.16415834,-79.963037,189.2181
42.16415716,-79.96303969,189.1962
42.16415615,-79.96304238,189.2047
42.1641549,-79.96304516,189.1886
42.16415366,-79.96304802,189.1815
42.16415248,-79.96305083,189.172
42.1641513,-79.96305368,189.1661
42.16415014,-79.96305666,189.1543
42.164149,-79.96305954,189.1454
42.16414783,-79.96306261,189.1487
42.16414662,-79.96306563,189.1518
42.1641454,-79.96306864,189.1302
42.16414407,-79.96307167,189.1335
42.16414287,-79.96307478,189.1125
42.16414149,-79.96307793,189.1112
42.16414006,-79.9630812,189.0957
42.16413881,-79.96308444,189.0918
42.1641376,-79.96308771,189.1116
42.16413632,-79.96309102,189.1296
42.16413483,-79.96309429,189.0997
42.16413341,-79.9630977,189.0914
42.164132,-79.96310099,189.0739
42.1641306,-79.96310436,189.0666
42.1641292,-79.96310769,189.0575
42.16412786,-79.96311117,189.0614
42.16412638,-79.96311464,189.0277
42.16412492,-79.96311809,189.0083
42.16412343,-79.96312152,189.0031
42.1641219,-79.96312498,188.9739
42.16412039,-79.96312856,188.9547
42.16411907,-79.96313209,188.9659
42.16411749,-79.96313564,188.9504
42.16411618,-79.96313918,188.9609
42.16411458,-79.96314281,188.9417
42.16411308,-79.96314639,188.9366
42.1641116,-79.96314998,188.9188
42.16411002,-79.96315375,188.9243
42.16410845,-79.96315761,188.911
42.16410687,-79.96316145,188.9106
42.16410522,-79.96316524,188.8859
42.16410367,-79.96316915,188.8834
42.1641022,-79.96317312,188.8852
42.16410071,-79.96317713,188.9117
42.1640992,-79.96318116,188.9185
42.16409764,-79.96318511,188.9243
42.16409594,-79.96318907,188.9098
42.16409434,-79.96319307,188.907
42.16409259,-79.96319706,188.9005
42.16409098,-79.96320105,188.9002
42.16408942,-79.96320511,188.9146
42.16408788,-79.96320921,188.9354
42.16408633,-79.96321327,188.959
42.16408469,-79.96321737,188.9627
42.16408306,-79.96322149,188.965
42.16408145,-79.96322563,188.961
42.16407974,-79.96322972,188.9436
42.16407808,-79.96323385,188.9322
42.16407639,-79.96323805,188.9516
42.16407481,-79.96324225,188.9399
42.1640731,-79.96324645,188.9295
42.16407139,-79.9632507,188.9449
42.16406973,-79.963255,188.9587
42.16406793,-79.96325933,188.9514
42.16406613,-79.96326364,188.9503
42.16406451,-79.96326798,188.9568
42.16406271,-79.9632724,188.9609
42.16406097,-79.96327694,188.9679
42.16405909,-79.9632814,188.9642
42.16405734,-79.96328587,188.9757
42.1640555,-79.96329042,188.9822
42.16405364,-79.96329489,188.9805
42.16405185,-79.96329949,188.9869
42.16405002,-79.96330407,188.9947
42.16404816,-79.96330861,188.9851
42.16404619,-79.96331321,188.9762
42.16404425,-79.96331784,188.9579
42.16404238,-79.96332248,188.9685
42.16404044,-79.96332716,188.9501
42.16389981,-79.96366773,189.1682
42.16389709,-79.96367426,189.1721
42.16389436,-79.96368077,189.18
42.16389164,-79.96368732,189.1843
42.16388889,-79.9636939,189.1854
42.16388615,-79.96370052,189.1914
42.16388339,-79.9637071,189.1858
42.16388066,-79.96371375,189.187
42.1638779,-79.96372039,189.191
42.16387511,-79.9637271,189.1973
42.16387229,-79.96373384,189.2106
42.16386947,-79.96374061,189.2153
42.16386665,-79.96374745,189.2238
42.1638638,-79.9637543,189.2324
42.16386095,-79.9637612,189.2438
42.16385812,-79.96376809,189.2612
42.16385528,-79.96377502,189.2735
42.16385241,-79.96378199,189.281
42.16384952,-79.96378902,189.2986
42.16384666,-79.96379602,189.3065
42.16384375,-79.96380311,189.3187
42.16384086,-79.96381023,189.3303
42.16383793,-79.96381734,189.3345
42.16383495,-79.96382452,189.3394
42.16383202,-79.96383168,189.3493
42.16382902,-79.96383888,189.3573
42.16382602,-79.96384609,189.3693
42.16382303,-79.96385331,189.37
42.16381999,-79.96386062,189.3763
42.16381696,-79.96386791,189.3832
42.16381389,-79.96387523,189.3886
42.16381081,-79.96388262,189.3956
42.16380778,-79.96389,189.4103
42.16380468,-79.96389746,189.4115
42.16380163,-79.96390491,189.4199
42.16379851,-79.96391246,189.4318
42.1637954,-79.96391998,189.4275
42.16379232,-79.96392756,189.4321
42.16378923,-79.96393516,189.435
42.16378613,-79.96394281,189.4404
42.16378301,-79.96395044,189.4346
42.16377991,-79.96395819,189.4371
42.16377673,-79.96396588,189.4463
42.16377355,-79.96397361,189.4433
42.1637704,-79.96398138,189.4455
42.16376726,-79.96398926,189.4428
42.16376404,-79.96399711,189.4563
42.16376081,-79.96400491,189.4585
42.16375759,-79.96401283,189.4625
42.16375432,-79.96402077,189.4646
42.16375107,-79.96402873,189.4706
42.16374779,-79.96403674,189.4753
42.16374448,-79.96404477,189.4767
42.16374119,-79.96405281,189.4801
42.16373789,-79.96406088,189.4852
42.16373456,-79.96406902,189.486
42.16373124,-79.96407713,189.4869
42.16372789,-79.96408529,189.4861
42.16372453,-79.96409344,189.4825
42.1637212,-79.96410165,189.4807
42.1637178,-79.96410986,189.4848
42.16371443,-79.9641181,189.4885
42.163711,-79.96412636,189.4909
42.16370757,-79.96413465,189.4853
42.16370413,-79.96414293,189.4806
42.16370063,-79.96415131,189.4803
42.16369713,-79.96415967,189.4766
42.16369362,-79.96416806,189.4677
42.16369015,-79.96417649,189.4676
42.16368666,-79.9641849,189.4536
42.16368319,-79.96419336,189.4473
42.16367967,-79.96420188,189.4439
42.1636762,-79.96421042,189.4401
42.16367271,-79.964219,189.4333
42.16366916,-79.96422762,189.4286
42.16366565,-79.96423629,189.4304
42.16366213,-79.96424499,189.4329
42.16365857,-79.96425373,189.4362
42.16365498,-79.96426248,189.4349
42.1636514,-79.96427127,189.445
42.16364777,-79.96428006,189.4506
42.16364415,-79.9642889,189.4561
42.16364051,-79.96429772,189.4595
42.16363685,-79.96430659,189.4617
42.16363318,-79.96431544,189.464
42.16362952,-79.96432433,189.4636
42.16362587,-79.96433325,189.4684
42.16362218,-79.96434218,189.4784
42.16361851,-79.96435117,189.4819
42.16361484,-79.96436016,189.4754
42.1636112,-79.96436918,189.4784
42.16360753,-79.96437819,189.4781
42.16360386,-79.96438724,189.4802
42.16360022,-79.96439629,189.4763
42.16359656,-79.96440534,189.4743
42.16359286,-79.96441443,189.4773
42.16358916,-79.96442353,189.4811
42.16358553,-79.9644326,189.4692
42.16358185,-79.96444165,189.4694
42.16357812,-79.96445072,189.4708
42.16357451,-79.96445984,189.4851
42.16357087,-79.96446894,189.468
42.16356724,-79.96447797,189.4645
42.16356358,-79.96448698,189.4697
42.16355991,-79.96449608,189.4752
42.16355625,-79.96450509,189.474
42.1635526,-79.96451407,189.4719
42.16354899,-79.96452304,189.4648
42.16354527,-79.96453194,189.4504
42.16354167,-79.96454092,189.4559
42.16353805,-79.96454991,189.4653
42.16353445,-79.96455882,189.4544
42.16353083,-79.96456774,189.4551
42.16352722,-79.96457674,189.457
42.16352358,-79.9645858,189.4679
42.16351994,-79.96459485,189.466
42.1635163,-79.96460395,189.4678
42.16351265,-79.9646131,189.4725
42.163509,-79.96462229,189.4793
42.1635053,-79.96463153,189.4848
42.16350159,-79.96464077,189.4834
42.16349789,-79.96465,189.487
42.16349415,-79.96465931,189.4871
42.16349041,-79.96466862,189.4936
42.16348664,-79.96467793,189.4982
42.16348286,-79.96468728,189.4985
42.16347908,-79.96469663,189.5029
42.16347527,-79.964706,189.5035
42.16347148,-79.96471545,189.5079
42.16346764,-79.96472495,189.509
42.16346383,-79.96473442,189.5055
42.16345999,-79.96474397,189.5023
42.16345618,-79.96475353,189.5029
42.16345234,-79.96476314,189.5042
42.16344854,-79.96477274,189.5053
42.16344468,-79.96478239,189.5102
42.16344084,-79.9647921,189.5158
42.16343698,-79.96480184,189.5281
42.16343312,-79.96481157,189.5356
42.16342923,-79.96482136,189.5481
42.16342532,-79.96483113,189.5547
42.16342143,-79.96484095,189.5679
42.16341755,-79.96485079,189.5713
42.16341367,-79.96486067,189.5764
42.16340976,-79.96487058,189.5786
42.16340585,-79.9648805,189.5819
42.16340194,-79.96489048,189.5832
42.16339807,-79.96490046,189.5808
42.16339414,-79.96491049,189.5755
42.16339023,-79.96492055,189.576
42.16338631,-79.96493064,189.577
42.16338232,-79.96494073,189.604
42.16337837,-79.96495087,189.6096
42.16337449,-79.9649612,189.5939
42.16337047,-79.96497134,189.6061
42.1633665,-79.96498158,189.6107
42.16336252,-79.96499187,189.6129
42.16335848,-79.96500222,189.6079
42.16335456,-79.96501253,189.6242
42.16335051,-79.96502289,189.6203
42.16334649,-79.9650333,189.618
42.16334251,-79.96504374,189.627
42.16333847,-79.96505419,189.6246
42.16333445,-79.96506475,189.637
42.16333044,-79.96507525,189.6409
42.16332643,-79.96508577,189.6463
42.16332242,-79.9650964,189.6549
42.16331845,-79.96510711,189.6671
42.16331443,-79.96511773,189.6688
42.1633104,-79.96512845,189.6763
42.16330634,-79.96513927,189.6924
42.16330222,-79.96515006,189.6995
42.16329811,-79.96516092,189.7114
42.16329401,-79.96517179,189.7195
42.16328987,-79.9651827,189.7243
42.16328578,-79.96519366,189.731
42.16328165,-79.96520466,189.7412
42.16327754,-79.9652157,189.7488
42.1632734,-79.96522676,189.7546
42.16326928,-79.96523784,189.759
42.16326516,-79.96524894,189.7613
42.16326105,-79.96526009,189.763
42.1632569,-79.96527128,189.7711
42.16325273,-79.96528252,189.7786
42.16324855,-79.96529376,189.7802
42.16324438,-79.96530501,189.7851
42.16324019,-79.96531631,189.7879
42.16323597,-79.96532766,189.7865
42.16323176,-79.965339,189.7882
42.16322753,-79.96535038,189.7946
42.1632233,-79.96536181,189.8044
42.16321905,-79.96537328,189.8171
42.16321479,-79.9653848,189.8287
42.16321052,-79.96539634,189.8454
42.16320626,-79.96540792,189.8605
42.16320198,-79.96541951,189.8659
42.16319772,-79.96543119,189.8674
42.16319344,-79.96544282,189.8827
42.16318912,-79.96545451,189.8916
42.16318488,-79.9654663,189.8841
42.16318055,-79.96547801,189.8966
42.16317624,-79.96548979,189.8956
42.1631719,-79.96550162,189.901
42.16316753,-79.96551346,189.9004
42.16316315,-79.96552531,189.9067
42.16315875,-79.96553722,189.9097
42.16315436,-79.96554915,189.91
42.16314988,-79.96556111,189.9143
42.16314548,-79.96557309,189.9209
42.16314107,-79.96558512,189.9248
42.16313657,-79.96559721,189.9177
42.1631321,-79.96560933,189.9286
42.16312762,-79.9656215,189.9311
42.16312312,-79.96563367,189.9405
42.16311864,-79.96564591,189.9495
42.1631141,-79.96565818,189.9531
42.16310955,-79.96567046,189.9554
42.16310497,-79.96568285,189.9672
42.1631004,-79.9656952,189.9745
42.16309584,-79.96570761,189.9826
42.16309123,-79.96572,189.9899
42.16308661,-79.96573247,189.9984
42.16308194,-79.96574495,190.0016
42.16307731,-79.96575747,189.9978
42.16307267,-79.96577003,189.9984
42.16306805,-79.96578263,189.9987
42.16306338,-79.96579528,189.9998
42.16305866,-79.96580798,190.0141
42.16305394,-79.96582071,190.0271
42.16304919,-79.96583346,190.037
42.16304444,-79.96584626,190.0476
42.1630397,-79.96585909,190.0625
42.16303496,-79.96587198,190.0687
42.16303023,-79.9658849,190.0793
42.16302546,-79.96589785,190.0841
42.16302071,-79.96591084,190.0952
42.16301596,-79.96592391,190.1057
42.16301116,-79.96593702,190.1076
42.16300635,-79.96595015,190.1112
42.1630015,-79.9659633,190.1235
42.16299664,-79.96597648,190.1294
42.16299173,-79.96598969,190.13
42.16298679,-79.96600293,190.1362
42.16298185,-79.96601622,190.1368
42.1629769,-79.96602955,190.1423
42.16297193,-79.96604295,190.1501
42.162967,-79.96605633,190.152
42.16296206,-79.96606978,190.1518
42.16295713,-79.96608325,190.1586
42.16295215,-79.96609675,190.1701
42.16294717,-79.96611028,190.182
42.16294217,-79.96612389,190.1924
42.16293717,-79.96613753,190.1975
42.16293217,-79.9661512,190.2097
42.16292716,-79.96616489,190.2219
42.1629221,-79.96617864,190.2333
42.16291705,-79.96619241,190.2384
42.16291197,-79.96620619,190.2481
42.16290689,-79.96622002,190.2554
42.16290178,-79.96623394,190.2599
42.16289669,-79.96624789,190.2593
42.16289158,-79.96626182,190.2586
42.16288647,-79.96627588,190.2651
42.16288135,-79.96628991,190.2668
42.1628762,-79.96630398,190.2743
42.16287105,-79.96631809,190.2726
42.16286586,-79.96633221,190.2687
42.16286068,-79.9663464,190.2642
42.1628555,-79.96636061,190.2661
42.16285031,-79.96637485,190.2669
42.1628451,-79.96638915,190.2678
42.16283989,-79.9664035,190.2664
42.16283465,-79.96641788,190.2629
42.16282941,-79.96643227,190.2594
42.16282417,-79.96644669,190.2655
42.16281893,-79.96646115,190.2653
42.16281363,-79.96647561,190.2622
42.16280832,-79.96649012,190.2605
42.162803,-79.96650464,190.2593
42.16279765,-79.96651918,190.2708
42.16279231,-79.96653377,190.2679
42.16278696,-79.96654837,190.2616
42.16278157,-79.96656297,190.2675
42.16277624,-79.96657766,190.2581
42.16277088,-79.96659239,190.2528
42.1627655,-79.96660714,190.255
42.16276011,-79.96662194,190.2483
42.16275471,-79.96663676,190.238
42.16274933,-79.96665159,190.2396
42.16274394,-79.96666649,190.2385
42.16273852,-79.96668142,190.2404
42.16273308,-79.9666964,190.2409
42.16272764,-79.96671137,190.2395
42.16272216,-79.96672638,190.2425
42.16271665,-79.96674143,190.2407
42.16271112,-79.96675651,190.2452
42.16270558,-79.96677167,190.244
42.1627,-79.96678686,190.2469
42.16269447,-79.96680206,190.2584
42.16268894,-79.96681735,190.2717
42.16268337,-79.96683265,190.2732
42.1626778,-79.96684797,190.2798
42.16267217,-79.96686333,190.2748
42.16266651,-79.96687867,190.2688
42.16266089,-79.96689414,190.2734
42.16265525,-79.96690962,190.2802
42.16264963,-79.96692514,190.2882
42.16264401,-79.96694065,190.2853
42.16263838,-79.96695622,190.2815
42.16263269,-79.96697176,190.2902
42.16262699,-79.96698739,190.2788
42.16262122,-79.96700303,190.286
42.16261543,-79.96701868,190.2863
42.16260968,-79.96703437,190.2867
42.16260389,-79.9670501,190.2903
42.16259812,-79.96706589,190.2947
42.16259234,-79.96708174,190.2973
42.16258653,-79.96709759,190.2943
42.16258072,-79.96711347,190.2878
42.16257486,-79.96712933,190.2848
42.16256897,-79.96714524,190.2882
42.16256308,-79.96716119,190.2932
42.16255716,-79.9671772,190.297
42.16255128,-79.9671932,190.2995
42.16254539,-79.96720926,190.3043
42.16253947,-79.96722532,190.3077
42.16253355,-79.96724141,190.3035
42.16252759,-79.96725754,190.3082
42.16252159,-79.9672737,190.3174
42.16251563,-79.96728988,190.3251
42.16250966,-79.96730609,190.3295
42.16250369,-79.96732231,190.3373
42.16249773,-79.96733856,190.3391
42.16249176,-79.96735486,190.3379
42.16248578,-79.96737117,190.3447
42.16247974,-79.9673875,190.3431
42.16247372,-79.96740385,190.3489
42.1624677,-79.96742024,190.3549
42.16246166,-79.96743664,190.3628
42.16245563,-79.96745304,190.3642
42.16244954,-79.96746944,190.378
42.16244355,-79.96748595,190.3622
42.16243745,-79.96750242,190.3689
42.16243135,-79.96751889,190.3765
42.16242524,-79.96753542,190.386
42.16241913,-79.96755198,190.3968
42.162413,-79.96756847,190.4037
42.1624069,-79.96758507,190.4145
42.1624008,-79.96760163,190.4228
42.16239468,-79.96761822,190.429
42.16238856,-79.96763478,190.4287
42.16238244,-79.96765135,190.4207
42.16237627,-79.96766796,190.4242
42.16237015,-79.9676846,190.4231
42.16236403,-79.96770125,190.424
42.16235791,-79.96771792,190.428
42.16235178,-79.96773461,190.4231
42.16234565,-79.96775129,190.4215
42.16233949,-79.96776798,190.4201
42.16233335,-79.96778471,190.4183
42.16232719,-79.96780143,190.4216
42.16232104,-79.96781818,190.4294
42.16231487,-79.96783493,190.4288
42.16230868,-79.96785171,190.4326
42.16230251,-79.96786849,190.432
42.16229634,-79.9678853,190.4361
42.16229014,-79.96790213,190.4356
42.16228397,-79.96791897,190.4387
42.16227781,-79.96793586,190.4382
42.16227164,-79.96795271,190.4343
42.16226539,-79.96796956,190.4436
42.16225923,-79.96798651,190.4372
42.162253,-79.96800338,190.444
42.16224677,-79.9680203,190.4406
42.16224053,-79.96803726,190.4427
42.1622343,-79.96805425,190.4474
42.16222808,-79.96807125,190.4448
42.16222186,-79.96808827,190.4372
42.16221563,-79.96810531,190.4421
42.16220942,-79.96812236,190.4396
42.16220321,-79.96813939,190.4371
42.16219697,-79.96815646,190.4378
42.16219073,-79.96817354,190.4414
42.16218452,-79.96819064,190.4473
42.16217824,-79.96820775,190.443
42.16217201,-79.96822488,190.4413
42.16216575,-79.96824203,190.4422
42.16215948,-79.96825922,190.4376
42.16215322,-79.96827633,190.4261
42.16214694,-79.96829357,190.4293
42.16214068,-79.96831074,190.431
42.16213437,-79.968328,190.4438
42.16212805,-79.96834519,190.4478
42.16212175,-79.96836245,190.4545
42.1621154,-79.9683797,190.4497
42.16210905,-79.96839694,190.4545
42.16210272,-79.96841421,190.4591
42.1620964,-79.96843151,190.4557
42.16209011,-79.96844882,190.4661
42.16208376,-79.96846613,190.4725
42.16207736,-79.96848346,190.4805
42.16207103,-79.96850084,190.4834
42.16206459,-79.9685182,190.4847
42.16205818,-79.96853558,190.4844
42.16205177,-79.96855301,190.4914
42.16204533,-79.96857042,190.4927
42.1620389,-79.96858787,190.4913
42.16203246,-79.96860534,190.492
42.162026,-79.96862284,190.4988
42.16201956,-79.96864037,190.501
42.16201314,-79.9686579,190.5019
42.1620067,-79.96867543,190.4991
42.1620003,-79.96869299,190.5001
42.16199385,-79.96871056,190.4944
42.16198738,-79.96872812,190.4979
42.16198091,-79.96874575,190.5004
42.16197446,-79.96876329,190.4961
42.161968,-79.96878096,190.4989
42.16196151,-79.96879859,190.4943
42.16195501,-79.96881625,190.4889
42.16194853,-79.9688339,190.4828
42.16194204,-79.96885156,190.4822
42.16193553,-79.96886923,190.4823
42.16192902,-79.96888698,190.4829
42.16192253,-79.96890472,190.4764
42.16191603,-79.96892249,190.4698
42.16190949,-79.96894018,190.4706
42.161903,-79.968958,190.458
42.16189648,-79.96897574,190.4564
42.16188993,-79.96899356,190.459
42.1618834,-79.96901136,190.4598
42.16187684,-79.96902921,190.4568
42.16187032,-79.96904708,190.4476
42.16186378,-79.96906494,190.4336
42.16185722,-79.9690828,190.4258
42.16185067,-79.96910066,190.4171
42.16184409,-79.9691186,190.4113
42.16183751,-79.96913652,190.4046
42.16183092,-79.96915446,190.3966
42.16182435,-79.96917236,190.3937
42.16181772,-79.96919036,190.3926
42.16181108,-79.96920832,190.3812
42.16180444,-79.96922632,190.3728
42.16179779,-79.96924438,190.3737
42.16179114,-79.96926236,190.369
42.16178452,-79.9692804,190.3588
42.16177785,-79.96929849,190.3519
42.16177116,-79.96931654,190.3635
42.16176457,-79.96933472,190.3366
42.16175787,-79.9693528,190.332
42.16175118,-79.96937092,190.3314
42.1617445,-79.96938907,190.3261
42.16173783,-79.96940727,190.322
42.16173112,-79.9694255,190.3132
42.16172441,-79.96944375,190.3048
42.16171772,-79.96946199,190.2941
42.16171099,-79.96948024,190.2785
42.16170426,-79.96949849,190.2688
42.16169756,-79.96951679,190.2566
42.16169082,-79.9695351,190.2482
42.16168406,-79.96955343,190.244
42.1616773,-79.96957177,190.2336
42.16167055,-79.9695901,190.2202
42.16166381,-79.96960846,190.2119
42.16165708,-79.96962685,190.1981
42.16165034,-79.96964527,190.1872
42.16164362,-79.9696637,190.1741
42.16163686,-79.96968215,190.1614
42.1616301,-79.96970063,190.1527
42.16162332,-79.96971912,190.1332
42.16161654,-79.96973767,190.1255
42.16160978,-79.96975616,190.1127
42.16160302,-79.96977472,190.1066
42.1615962,-79.96979324,190.0933
42.16158939,-79.9698118,190.0827
42.16158261,-79.96983033,190.0722
42.16157581,-79.96984891,190.0678
42.16156894,-79.96986743,190.0652
42.16156216,-79.96988604,190.0457
42.16155534,-79.96990459,190.0444
42.16154853,-79.96992319,190.0365
42.16154169,-79.96994178,190.0269
42.16153484,-79.96996039,190.0215
42.16152799,-79.969979,190.0005
42.16152112,-79.96999762,189.9848
42.16151426,-79.97001623,189.968
42.16150737,-79.9700349,189.9637
42.1615005,-79.97005355,189.9548
42.16149364,-79.97007217,189.945
42.16148677,-79.97009085,189.9325
42.16147987,-79.97010951,189.9264
42.16147296,-79.97012821,189.9246
42.16146605,-79.9701469,189.9157
42.16145916,-79.97016562,189.9061
42.16145225,-79.97018437,189.9002
42.16144536,-79.9702031,189.8871
42.16143848,-79.97022181,189.8831
42.16143159,-79.97024058,189.8789
